Diameter(nm)    dN/dlogD * 1e-3 (cm^-3/nm)
 0.20387E+01    0.23454E-13
 0.21185E+01    0.38952E-13
 0.22014E+01    0.64414E-13
 0.22875E+01    0.10607E-12
 0.23770E+01    0.17391E-12
 0.24700E+01    0.28394E-12
 0.25666E+01    0.46161E-12
 0.26670E+01    0.74725E-12
 0.27714E+01    0.12045E-11
 0.28798E+01    0.19333E-11
 0.29925E+01    0.30899E-11
 0.31095E+01    0.49174E-11
 0.32312E+01    0.77925E-11
 0.33576E+01    0.12296E-10
 0.34890E+01    0.19320E-10
 0.36255E+01    0.30226E-10
 0.37673E+01    0.47089E-10
 0.39147E+01    0.73047E-10
 0.40678E+01    0.11283E-09
 0.42270E+01    0.17354E-09
 0.43923E+01    0.26579E-09
 0.45642E+01    0.40534E-09
 0.47427E+01    0.61552E-09
 0.49283E+01    0.93072E-09
 0.51211E+01    0.14013E-08
 0.53215E+01    0.21009E-08
 0.55296E+01    0.31364E-08
 0.57460E+01    0.46624E-08
 0.59708E+01    0.69012E-08
 0.62044E+01    0.10172E-07
 0.64471E+01    0.14928E-07
 0.66993E+01    0.21816E-07
 0.69614E+01    0.31746E-07
 0.72337E+01    0.45999E-07
 0.75167E+01    0.66368E-07
 0.78108E+01    0.95349E-07
 0.81164E+01    0.13640E-06
 0.84339E+01    0.19430E-06
 0.87639E+01    0.27560E-06
 0.91067E+01    0.38926E-06
 0.94630E+01    0.54745E-06
 0.98332E+01    0.76665E-06
 0.10218E+02    0.10690E-05
 0.10618E+02    0.14844E-05
 0.11033E+02    0.20523E-05
 0.11465E+02    0.28255E-05
 0.11913E+02    0.38733E-05
 0.12379E+02    0.52872E-05
 0.12864E+02    0.71866E-05
 0.13367E+02    0.97266E-05
 0.13890E+02    0.13108E-04
 0.14433E+02    0.17591E-04
 0.14998E+02    0.23506E-04
 0.15585E+02    0.31276E-04
 0.16194E+02    0.41438E-04
 0.16828E+02    0.54668E-04
 0.17486E+02    0.71815E-04
 0.18170E+02    0.93939E-04
 0.18881E+02    0.12236E-03
 0.19620E+02    0.15869E-03
 0.20387E+02    0.20494E-03
 0.21185E+02    0.26355E-03
 0.22014E+02    0.33747E-03
 0.22875E+02    0.43029E-03
 0.23770E+02    0.54630E-03
 0.24700E+02    0.69064E-03
 0.25666E+02    0.86940E-03
 0.26670E+02    0.10898E-02
 0.27714E+02    0.13602E-02
 0.28798E+02    0.16905E-02
 0.29925E+02    0.20921E-02
 0.31095E+02    0.25781E-02
 0.32312E+02    0.31634E-02
 0.33576E+02    0.38652E-02
 0.34890E+02    0.47025E-02
 0.36255E+02    0.56969E-02
 0.37673E+02    0.68722E-02
 0.39147E+02    0.82547E-02
 0.40678E+02    0.98731E-02
 0.42270E+02    0.11759E-01
 0.43923E+02    0.13945E-01
 0.45642E+02    0.16467E-01
 0.47427E+02    0.19362E-01
 0.49283E+02    0.22670E-01
 0.51211E+02    0.26430E-01
 0.53215E+02    0.30683E-01
 0.55296E+02    0.35468E-01
 0.57460E+02    0.24236E-01
 0.59708E+02    0.00000E+00
 0.62044E+02    0.00000E+00
 0.64471E+02    0.00000E+00
 0.66993E+02    0.00000E+00
 0.69614E+02    0.00000E+00
 0.72337E+02    0.00000E+00
 0.75167E+02    0.00000E+00
 0.78108E+02    0.00000E+00
 0.81164E+02    0.00000E+00
 0.84339E+02    0.00000E+00
 0.87639E+02    0.00000E+00
 0.91067E+02    0.00000E+00
 0.94630E+02    0.00000E+00
 0.98332E+02    0.00000E+00
 0.10218E+03    0.00000E+00
 0.10618E+03    0.00000E+00
 0.11033E+03    0.00000E+00
 0.11465E+03    0.00000E+00
 0.11913E+03    0.00000E+00
 0.12379E+03    0.00000E+00
 0.12864E+03    0.00000E+00
 0.13367E+03    0.00000E+00
 0.13890E+03    0.00000E+00
 0.14433E+03    0.00000E+00
 0.14998E+03    0.00000E+00
 0.15585E+03    0.00000E+00
 0.16194E+03    0.00000E+00
 0.16828E+03    0.00000E+00
 0.17486E+03    0.00000E+00
 0.18170E+03    0.00000E+00
 0.18881E+03    0.00000E+00
 0.19620E+03    0.00000E+00
 0.20387E+03    0.00000E+00
 0.21185E+03    0.00000E+00
 0.22014E+03    0.00000E+00
 0.22875E+03    0.00000E+00
 0.23770E+03    0.00000E+00
 0.24700E+03    0.00000E+00
 0.25666E+03    0.00000E+00
 0.26670E+03    0.00000E+00
 0.27714E+03    0.00000E+00
 0.28798E+03    0.00000E+00
 0.29925E+03    0.00000E+00
 0.31095E+03    0.00000E+00
 0.32312E+03    0.00000E+00
 0.33576E+03    0.00000E+00
 0.34890E+03    0.00000E+00
 0.36255E+03    0.00000E+00
 0.37673E+03    0.00000E+00
 0.39147E+03    0.00000E+00
 0.40678E+03    0.00000E+00
 0.42270E+03    0.00000E+00
 0.43923E+03    0.00000E+00
 0.45642E+03    0.00000E+00
 0.47427E+03    0.00000E+00
 0.49283E+03    0.00000E+00
 0.51211E+03    0.00000E+00
 0.53215E+03    0.00000E+00
 0.55296E+03    0.00000E+00
 0.57460E+03    0.00000E+00
 0.59708E+03    0.00000E+00
 0.62044E+03    0.00000E+00
 0.64471E+03    0.00000E+00
 0.66993E+03    0.00000E+00
 0.69614E+03    0.00000E+00
 0.72337E+03    0.00000E+00
 0.75167E+03    0.00000E+00
 0.78108E+03    0.00000E+00
 0.81164E+03    0.00000E+00
 0.84339E+03    0.00000E+00
 0.87639E+03    0.00000E+00
 0.91067E+03    0.00000E+00
 0.94630E+03    0.00000E+00
 0.98332E+03    0.00000E+00
 0.10218E+04    0.00000E+00
 0.10618E+04    0.00000E+00
 0.11033E+04    0.00000E+00
 0.11465E+04    0.00000E+00
 0.11913E+04    0.00000E+00
 0.12379E+04    0.00000E+00
 0.12864E+04    0.00000E+00
 0.13367E+04    0.00000E+00
 0.13890E+04    0.00000E+00
 0.14433E+04    0.00000E+00
 0.14998E+04    0.00000E+00
 0.15585E+04    0.00000E+00
 0.16194E+04    0.00000E+00
 0.16828E+04    0.00000E+00
 0.17486E+04    0.00000E+00
 0.18170E+04    0.00000E+00
 0.18881E+04    0.00000E+00
 0.19620E+04    0.00000E+00
 0.20387E+04    0.00000E+00
 0.21185E+04    0.00000E+00
 0.22014E+04    0.00000E+00
 0.22875E+04    0.00000E+00
 0.23770E+04    0.00000E+00
 0.24700E+04    0.00000E+00
 0.25666E+04    0.00000E+00
 0.26670E+04    0.00000E+00
 0.27714E+04    0.00000E+00
 0.28798E+04    0.00000E+00
 0.29925E+04    0.00000E+00
 0.31095E+04    0.00000E+00
 0.32312E+04    0.00000E+00
 0.33576E+04    0.00000E+00
 0.34890E+04    0.00000E+00
 0.36255E+04    0.00000E+00
 0.37673E+04    0.00000E+00
 0.39147E+04    0.00000E+00
 0.40678E+04    0.00000E+00
 0.42270E+04    0.00000E+00
 0.43923E+04    0.00000E+00
 0.45642E+04    0.00000E+00
 0.47427E+04    0.00000E+00
 0.49283E+04    0.00000E+00
 0.51211E+04    0.00000E+00
 0.53215E+04    0.00000E+00
 0.55296E+04    0.00000E+00
 0.57460E+04    0.00000E+00
 0.59708E+04    0.00000E+00
 0.62044E+04    0.00000E+00
 0.64471E+04    0.00000E+00
 0.66993E+04    0.00000E+00
 0.69614E+04    0.00000E+00
 0.72337E+04    0.00000E+00
 0.75167E+04    0.00000E+00
 0.78108E+04    0.00000E+00
 0.81164E+04    0.00000E+00
 0.84339E+04    0.00000E+00
 0.87639E+04    0.00000E+00
 0.91067E+04    0.00000E+00
 0.94630E+04    0.00000E+00
 0.98332E+04    0.00000E+00
 0.10218E+05    0.00000E+00
 0.10618E+05    0.00000E+00
 0.11033E+05    0.00000E+00
 0.11465E+05    0.00000E+00
 0.11913E+05    0.00000E+00
 0.12379E+05    0.00000E+00
 0.12864E+05    0.00000E+00
 0.13367E+05    0.00000E+00
 0.13890E+05    0.00000E+00
 0.14433E+05    0.00000E+00
 0.14998E+05    0.00000E+00
 0.15585E+05    0.00000E+00
 0.16194E+05    0.00000E+00
 0.16828E+05    0.00000E+00
 0.17486E+05    0.00000E+00
 0.18170E+05    0.00000E+00
 0.18881E+05    0.00000E+00
 0.19620E+05    0.00000E+00
 0.20387E+05    0.00000E+00
 0.21185E+05    0.00000E+00
 0.22014E+05    0.00000E+00
 0.22875E+05    0.00000E+00
 0.23770E+05    0.00000E+00
 0.24700E+05    0.00000E+00
 0.25666E+05    0.00000E+00
 0.26670E+05    0.00000E+00
 0.27714E+05    0.00000E+00
 0.28798E+05    0.00000E+00
 0.29925E+05    0.00000E+00
 0.31095E+05    0.00000E+00
 0.32312E+05    0.00000E+00
 0.33576E+05    0.00000E+00
 0.34890E+05    0.00000E+00
 0.36255E+05    0.00000E+00
 0.37673E+05    0.00000E+00
 0.39147E+05    0.00000E+00
 0.40678E+05    0.00000E+00
 0.42270E+05    0.00000E+00
 0.43923E+05    0.00000E+00
 0.45642E+05    0.00000E+00
 0.47427E+05    0.00000E+00
 0.49283E+05    0.00000E+00
 0.51211E+05    0.00000E+00
 0.53215E+05    0.00000E+00
 0.55296E+05    0.00000E+00
 0.57460E+05    0.00000E+00
 0.59708E+05    0.00000E+00
 0.62044E+05    0.00000E+00
 0.64471E+05    0.00000E+00
 0.66993E+05    0.00000E+00
 0.69614E+05    0.00000E+00
 0.72337E+05    0.00000E+00
 0.75167E+05    0.00000E+00
 0.78108E+05    0.00000E+00
 0.81164E+05    0.00000E+00
 0.84339E+05    0.00000E+00
 0.87639E+05    0.00000E+00
 0.91067E+05    0.00000E+00
 0.94630E+05    0.00000E+00
 0.98332E+05    0.00000E+00
 0.10218E+06    0.00000E+00
 0.10618E+06    0.00000E+00
 0.11033E+06    0.00000E+00
 0.11465E+06    0.00000E+00
 0.11913E+06    0.00000E+00
 0.12379E+06    0.00000E+00
 0.12864E+06    0.00000E+00
 0.13367E+06    0.00000E+00
 0.13890E+06    0.00000E+00
 0.14433E+06    0.00000E+00
 0.14998E+06    0.00000E+00
 0.15585E+06    0.00000E+00
 0.16194E+06    0.00000E+00
 0.16828E+06    0.00000E+00
 0.17486E+06    0.00000E+00
 0.18170E+06    0.00000E+00
 0.18881E+06    0.00000E+00
 0.19620E+06    0.00000E+00
