Diameter(nm)    dN/dlogD * 1e-3 (cm^-3/nm)
 0.20387E+01    0.23454E-13
 0.21185E+01    0.38952E-13
 0.22014E+01    0.64414E-13
 0.22875E+01    0.10607E-12
 0.23770E+01    0.17391E-12
 0.24700E+01    0.28394E-12
 0.25666E+01    0.46161E-12
 0.26670E+01    0.74725E-12
 0.27714E+01    0.12045E-11
 0.28798E+01    0.19333E-11
 0.29925E+01    0.30899E-11
 0.31095E+01    0.49174E-11
 0.32312E+01    0.77925E-11
 0.33576E+01    0.12296E-10
 0.34890E+01    0.19320E-10
 0.36255E+01    0.30226E-10
 0.37673E+01    0.47089E-10
 0.39147E+01    0.73047E-10
 0.40678E+01    0.11283E-09
 0.42270E+01    0.17354E-09
 0.43923E+01    0.26579E-09
 0.45642E+01    0.40534E-09
 0.47427E+01    0.61552E-09
 0.49283E+01    0.93072E-09
 0.51211E+01    0.14013E-08
 0.53215E+01    0.21009E-08
 0.55296E+01    0.31364E-08
 0.57460E+01    0.46624E-08
 0.59708E+01    0.69012E-08
 0.62044E+01    0.10172E-07
 0.64471E+01    0.14928E-07
 0.66993E+01    0.21816E-07
 0.69614E+01    0.31746E-07
 0.72337E+01    0.45999E-07
 0.75167E+01    0.66368E-07
 0.78108E+01    0.95349E-07
 0.81164E+01    0.13640E-06
 0.84339E+01    0.19430E-06
 0.87639E+01    0.27560E-06
 0.91067E+01    0.38926E-06
 0.94630E+01    0.54745E-06
 0.98332E+01    0.76665E-06
 0.10218E+02    0.10690E-05
 0.10618E+02    0.14844E-05
 0.11033E+02    0.20523E-05
 0.11465E+02    0.28255E-05
 0.11913E+02    0.38733E-05
 0.12379E+02    0.52872E-05
 0.12864E+02    0.71866E-05
 0.13367E+02    0.97266E-05
 0.13890E+02    0.13108E-04
 0.14433E+02    0.17591E-04
 0.14998E+02    0.23506E-04
 0.15585E+02    0.31276E-04
 0.16194E+02    0.41438E-04
 0.16828E+02    0.54668E-04
 0.17486E+02    0.71815E-04
 0.18170E+02    0.93939E-04
 0.18881E+02    0.12236E-03
 0.19620E+02    0.15869E-03
 0.20387E+02    0.20494E-03
 0.21185E+02    0.26355E-03
 0.22014E+02    0.33747E-03
 0.22875E+02    0.43029E-03
 0.23770E+02    0.54630E-03
 0.24700E+02    0.69064E-03
 0.25666E+02    0.86940E-03
 0.26670E+02    0.10898E-02
 0.27714E+02    0.13602E-02
 0.28798E+02    0.16905E-02
 0.29925E+02    0.20921E-02
 0.31095E+02    0.25781E-02
 0.32312E+02    0.31634E-02
 0.33576E+02    0.38652E-02
 0.34890E+02    0.47025E-02
 0.36255E+02    0.56969E-02
 0.37673E+02    0.68722E-02
 0.39147E+02    0.82547E-02
 0.40678E+02    0.98731E-02
 0.42270E+02    0.11759E-01
 0.43923E+02    0.13945E-01
 0.45642E+02    0.16467E-01
 0.47427E+02    0.19362E-01
 0.49283E+02    0.22670E-01
 0.51211E+02    0.26430E-01
 0.53215E+02    0.30683E-01
 0.55296E+02    0.35468E-01
 0.57460E+02    0.40825E-01
 0.59708E+02    0.46792E-01
 0.62044E+02    0.53403E-01
 0.64471E+02    0.60688E-01
 0.66993E+02    0.68673E-01
 0.69614E+02    0.77379E-01
 0.72337E+02    0.86818E-01
 0.75167E+02    0.96993E-01
 0.78108E+02    0.10790E+00
 0.81164E+02    0.11952E+00
 0.84339E+02    0.13184E+00
 0.87639E+02    0.14480E+00
 0.91067E+02    0.15836E+00
 0.94630E+02    0.17245E+00
 0.98332E+02    0.18700E+00
 0.10218E+03    0.20191E+00
 0.10618E+03    0.21709E+00
 0.11033E+03    0.23241E+00
 0.11465E+03    0.24776E+00
 0.11913E+03    0.26299E+00
 0.12379E+03    0.27798E+00
 0.12864E+03    0.29257E+00
 0.13367E+03    0.30661E+00
 0.13890E+03    0.31997E+00
 0.14433E+03    0.33248E+00
 0.14998E+03    0.34401E+00
 0.15585E+03    0.35443E+00
 0.16194E+03    0.36361E+00
 0.16828E+03    0.37145E+00
 0.17486E+03    0.37784E+00
 0.18170E+03    0.38270E+00
 0.18881E+03    0.38598E+00
 0.19620E+03    0.38762E+00
 0.20387E+03    0.38762E+00
 0.21185E+03    0.38598E+00
 0.22014E+03    0.38270E+00
 0.22875E+03    0.37784E+00
 0.23770E+03    0.37145E+00
 0.24700E+03    0.36361E+00
 0.25666E+03    0.35443E+00
 0.26670E+03    0.34401E+00
 0.27714E+03    0.33248E+00
 0.28798E+03    0.31997E+00
 0.29925E+03    0.30661E+00
 0.31095E+03    0.29257E+00
 0.32312E+03    0.27798E+00
 0.33576E+03    0.26299E+00
 0.34890E+03    0.24776E+00
 0.36255E+03    0.23241E+00
 0.37673E+03    0.21709E+00
 0.39147E+03    0.20191E+00
 0.40678E+03    0.18700E+00
 0.42270E+03    0.17245E+00
 0.43923E+03    0.15836E+00
 0.45642E+03    0.14480E+00
 0.47427E+03    0.13184E+00
 0.49283E+03    0.11952E+00
 0.51211E+03    0.10790E+00
 0.53215E+03    0.96993E-01
 0.55296E+03    0.86818E-01
 0.57460E+03    0.77379E-01
 0.59708E+03    0.68673E-01
 0.62044E+03    0.60688E-01
 0.64471E+03    0.53403E-01
 0.66993E+03    0.46792E-01
 0.69614E+03    0.40825E-01
 0.72337E+03    0.35468E-01
 0.75167E+03    0.30683E-01
 0.78108E+03    0.26430E-01
 0.81164E+03    0.22670E-01
 0.84339E+03    0.19362E-01
 0.87639E+03    0.16467E-01
 0.91067E+03    0.13945E-01
 0.94630E+03    0.11759E-01
 0.98332E+03    0.98731E-02
 0.10218E+04    0.82547E-02
 0.10618E+04    0.68722E-02
 0.11033E+04    0.56969E-02
 0.11465E+04    0.47025E-02
 0.11913E+04    0.38652E-02
 0.12379E+04    0.31634E-02
 0.12864E+04    0.25781E-02
 0.13367E+04    0.20921E-02
 0.13890E+04    0.16905E-02
 0.14433E+04    0.13602E-02
 0.14998E+04    0.10898E-02
 0.15585E+04    0.86940E-03
 0.16194E+04    0.69064E-03
 0.16828E+04    0.54630E-03
 0.17486E+04    0.43029E-03
 0.18170E+04    0.33747E-03
 0.18881E+04    0.26355E-03
 0.19620E+04    0.20494E-03
 0.20387E+04    0.15869E-03
 0.21185E+04    0.12236E-03
 0.22014E+04    0.93939E-04
 0.22875E+04    0.71815E-04
 0.23770E+04    0.54668E-04
 0.24700E+04    0.41438E-04
 0.25666E+04    0.31276E-04
 0.26670E+04    0.23506E-04
 0.27714E+04    0.17591E-04
 0.28798E+04    0.13108E-04
 0.29925E+04    0.97266E-05
 0.31095E+04    0.71866E-05
 0.32312E+04    0.52872E-05
 0.33576E+04    0.38733E-05
 0.34890E+04    0.28255E-05
 0.36255E+04    0.20523E-05
 0.37673E+04    0.14844E-05
 0.39147E+04    0.10690E-05
 0.40678E+04    0.76665E-06
 0.42270E+04    0.54745E-06
 0.43923E+04    0.38926E-06
 0.45642E+04    0.27560E-06
 0.47427E+04    0.19430E-06
 0.49283E+04    0.13640E-06
 0.51211E+04    0.95349E-07
 0.53215E+04    0.66368E-07
 0.55296E+04    0.45999E-07
 0.57460E+04    0.31746E-07
 0.59708E+04    0.21816E-07
 0.62044E+04    0.14928E-07
 0.64471E+04    0.10172E-07
 0.66993E+04    0.69012E-08
 0.69614E+04    0.46624E-08
 0.72337E+04    0.31364E-08
 0.75167E+04    0.21009E-08
 0.78108E+04    0.14013E-08
 0.81164E+04    0.93072E-09
 0.84339E+04    0.61552E-09
 0.87639E+04    0.40534E-09
 0.91067E+04    0.26579E-09
 0.94630E+04    0.17354E-09
 0.98332E+04    0.11283E-09
 0.10218E+05    0.73047E-10
 0.10618E+05    0.47089E-10
 0.11033E+05    0.30226E-10
 0.11465E+05    0.19320E-10
 0.11913E+05    0.12296E-10
 0.12379E+05    0.77925E-11
 0.12864E+05    0.49174E-11
 0.13367E+05    0.30899E-11
 0.13890E+05    0.19333E-11
 0.14433E+05    0.12045E-11
 0.14998E+05    0.74725E-12
 0.15585E+05    0.46161E-12
 0.16194E+05    0.28394E-12
 0.16828E+05    0.17391E-12
 0.17486E+05    0.10607E-12
 0.18170E+05    0.64414E-13
 0.18881E+05    0.38952E-13
 0.19620E+05    0.23454E-13
 0.20387E+05    0.14063E-13
 0.21185E+05    0.83958E-14
 0.22014E+05    0.49912E-14
 0.22875E+05    0.29546E-14
 0.23770E+05    0.17416E-14
 0.24700E+05    0.10222E-14
 0.25666E+05    0.59740E-15
 0.26670E+05    0.34766E-15
 0.27714E+05    0.20146E-15
 0.28798E+05    0.11624E-15
 0.29925E+05    0.66789E-16
 0.31095E+05    0.38211E-16
 0.32312E+05    0.21768E-16
 0.33576E+05    0.12348E-16
 0.34890E+05    0.69746E-17
 0.36255E+05    0.39228E-17
 0.37673E+05    0.21970E-17
 0.39147E+05    0.12252E-17
 0.40678E+05    0.68033E-18
 0.42270E+05    0.37617E-18
 0.43923E+05    0.20711E-18
 0.45642E+05    0.11355E-18
 0.47427E+05    0.61986E-19
 0.49283E+05    0.33695E-19
 0.51211E+05    0.18238E-19
 0.53215E+05    0.98297E-20
 0.55296E+05    0.52753E-20
 0.57460E+05    0.28191E-20
 0.59708E+05    0.15001E-20
 0.62044E+05    0.79484E-21
 0.64471E+05    0.41936E-21
 0.66993E+05    0.22031E-21
 0.69614E+05    0.11525E-21
 0.72337E+05    0.60034E-22
 0.75167E+05    0.31139E-22
 0.78108E+05    0.16082E-22
 0.81164E+05    0.82709E-23
 0.84339E+05    0.42354E-23
 0.87639E+05    0.21597E-23
 0.91067E+05    0.10966E-23
 0.94630E+05    0.55442E-24
 0.98332E+05    0.27911E-24
 0.10218E+06    0.13992E-24
 0.10618E+06    0.69841E-25
 0.11033E+06    0.34714E-25
 0.11465E+06    0.17181E-25
 0.11913E+06    0.84669E-26
 0.12379E+06    0.41549E-26
 0.12864E+06    0.20302E-26
 0.13367E+06    0.98781E-27
 0.13890E+06    0.47858E-27
 0.14433E+06    0.23088E-27
 0.14998E+06    0.11091E-27
 0.15585E+06    0.53051E-28
 0.16194E+06    0.25268E-28
 0.16828E+06    0.11984E-28
 0.17486E+06    0.56593E-29
 0.18170E+06    0.26613E-29
 0.18881E+06    0.12461E-29
 0.19620E+06    0.58100E-30
